wavelength,UV,blue,green
300,0.00181961646161658,0.000740316997426485,0.000931316881155554
301,0.00202882343189228,0.000750316918173713,0.000938701658883869
302,0.00223803040216798,0.000760316838920942,0.000946086436612184
303,0.00244723737244369,0.000770316759668171,0.000953471214340499
304,0.00265644434271939,0.000780316680415400,0.000960855992068814
305,0.00292969613629656,0.000790706970830777,0.000967442325906360
306,0.00320294792987373,0.000801097261246154,0.000974028659743906
307,0.00347619972345090,0.000811487551661531,0.000980614993581452
308,0.00374945151702808,0.000821877842076909,0.000987201327418998
309,0.00409110804663594,0.000832623280836992,0.000992863321648559
310,0.00443276457624381,0.000843368719597076,0.000998525315878119
311,0.00477442110585168,0.000854114158357159,0.00100418731010768
312,0.00511607763545955,0.000864859597117243,0.00100984930433724
313,0.00552409203680629,0.000875883871354575,0.00101448922412571
314,0.00593210643815303,0.000886908145591908,0.00101912914391419
315,0.00634012083949977,0.000897932419829240,0.00102376906370266
316,0.00674813524084650,0.000908956694066573,0.00102840898349113
317,0.00721209879596380,0.000920142399369681,0.00103196719402510
318,0.00767606235108111,0.000931328104672789,0.00103552540455906
319,0.00814002590619841,0.000942513809975897,0.00103908361509303
320,0.00860398946131571,0.000953699515279005,0.00104264182562699
321,0.00910414488146743,0.000964905766354120,0.00104512163995164
322,0.00960430030161916,0.000976112017429236,0.00104760145427629
323,0.0101044557217709,0.000987318268504352,0.00105008126860094
324,0.0106046111419226,0.000998524519579468,0.00105256108292559
325,0.0111123298633141,0.00100958988536082,0.00105404035760289
326,0.0116200485847056,0.00102065525114216,0.00105551963228018
327,0.0121277673060971,0.00103172061692351,0.00105699890695748
328,0.0126354860274885,0.00104278598270486,0.00105847818163478
329,0.0131155124189767,0.00105355783745753,0.00105913085153719
330,0.0135955388104648,0.00106432969221019,0.00105978352143960
331,0.0140755652019530,0.00107510154696286,0.00106043619134201
332,0.0145555915934411,0.00108587340171552,0.00106108886124443
333,0.0149698750903543,0.00109623727613832,0.00106116671780639
334,0.0153841585872675,0.00110660115056111,0.00106124457436835
335,0.0157984420841807,0.00111696502498391,0.00106132243093032
336,0.0162127255810939,0.00112732889940670,0.00106140028749228
337,0.0165254185220342,0.00113726718283791,0.00106122800914240
338,0.0168381114629745,0.00114720546626911,0.00106105573079253
339,0.0171508044039149,0.00115714374970032,0.00106088345244265
340,0.0174634973448552,0.00116708203313152,0.00106071117409278
341,0.0176460859005735,0.00117674148108548,0.00106065816536974
342,0.0178286744562918,0.00118640092903944,0.00106060515664670
343,0.0180112630120101,0.00119606037699339,0.00106055214792366
344,0.0181938515677284,0.00120571982494735,0.00106049913920062
345,0.0182294927069444,0.00121549961242307,0.00106093314812050
346,0.0182651338461604,0.00122527939989878,0.00106136715704038
347,0.0183007749853764,0.00123505918737450,0.00106180116596026
348,0.0183364161245924,0.00124483897485022,0.00106223517488014
349,0.0182225168465776,0.00125549929541198,0.00106349081900711
350,0.0181086175685629,0.00126615961597375,0.00106474646313409
351,0.0179947182905481,0.00127681993653551,0.00106600210726107
352,0.0178808190125334,0.00128748025709728,0.00106725775138804
353,0.0176292979418750,0.00130023624640384,0.00106960835695029
354,0.0173777768712167,0.00131299223571040,0.00107195896251253
355,0.0171262558005584,0.00132574822501697,0.00107430956807477
356,0.0168747347299001,0.00133850421432353,0.00107666017363702
357,0.0165099660734455,0.00135515509498071,0.00108029127116516
358,0.0161451974169908,0.00137180597563790,0.00108392236869331
359,0.0157804287605362,0.00138845685629508,0.00108755346622145
360,0.0154156601040816,0.00140510773695227,0.00109118456374959
361,0.0149705956233001,0.00142808378027757,0.00109620217068972
362,0.0145255311425185,0.00145105982360287,0.00110121977762984
363,0.0140804666617370,0.00147403586692818,0.00110623738456996
364,0.0136354021809554,0.00149701191025348,0.00111125499151008
365,0.0131467018578270,0.00152942139804065,0.00111768064265592
366,0.0126580015346986,0.00156183088582783,0.00112410629380175
367,0.0121693012115702,0.00159424037361500,0.00113053194494759
368,0.0116806008884418,0.00162664986140217,0.00113695759609342
369,0.0111837590019643,0.00167220570816406,0.00114475484794788
370,0.0106869171154868,0.00171776155492594,0.00115255209980234
371,0.0101900752290093,0.00176331740168783,0.00116034935165680
372,0.00969323334253180,0.00180887324844971,0.00116814660351126
373,0.00921858570653697,0.00187171689480102,0.00117723759951238
374,0.00874393807054215,0.00193456054115233,0.00118632859551350
375,0.00826929043454733,0.00199740418750364,0.00119541959151462
376,0.00779464279855250,0.00206024783385495,0.00120451058751574
377,0.00736481506541416,0.00214464986526303,0.00121480421892080
378,0.00693498733227581,0.00222905189667110,0.00122509785032586
379,0.00650515959913747,0.00231345392807918,0.00123539148173092
380,0.00607533186599912,0.00239785595948725,0.00124568511313597
381,0.00570427116706896,0.00250777290461874,0.00125709192772484
382,0.00533321046813881,0.00261768984975023,0.00126849874231371
383,0.00496214976920865,0.00272760679488171,0.00127990555690258
384,0.00459108907027850,0.00283752374001320,0.00129131237149145
385,0.00428451836468638,0.00297601104867668,0.00130376113879255
386,0.00397794765909425,0.00311449835734017,0.00131620990609364
387,0.00367137695350213,0.00325298566600366,0.00132865867339474
388,0.00336480624791001,0.00339147297466714,0.00134110744069584
389,0.00312170210351000,0.00356006277443235,0.00135456006068948
390,0.00287859795910999,0.00372865257419757,0.00136801268068312
391,0.00263549381470999,0.00389724237396278,0.00138146530067675
392,0.00239238967030998,0.00406583217372799,0.00139491792067039
393,0.00220696487662677,0.00426386993500097,0.00140936279769841
394,0.00202154008294356,0.00446190769627394,0.00142380767472643
395,0.00183611528926035,0.00465994545754691,0.00143825255175445
396,0.00165069049557713,0.00485798321881989,0.00145269742878247
397,0.00151441339180689,0.00508209943499134,0.00146815775416120
398,0.00137813628803664,0.00530621565116280,0.00148361807953992
399,0.00124185918426639,0.00553033186733426,0.00149907840491865
400,0.00110558208049615,0.00575444808350571,0.00151453873029738
401,0.00100894346750732,0.00599821779815778,0.00153106916927245
402,0.000912304854518501,0.00624198751280985,0.00154759960824751
403,0.000815666241529678,0.00648575722746192,0.00156413004722258
404,0.000719027628540856,0.00672952694211399,0.00158066048619765
405,0.000652825795783874,0.00698348442457164,0.00159833723880843
406,0.000586623963026892,0.00723744190702929,0.00161601399141921
407,0.000520422130269911,0.00749139938948695,0.00163369074402999
408,0.000454220297512929,0.00774535687194460,0.00165136749664076
409,0.000410364164838702,0.00799736250606151,0.00167028664119776
410,0.000366508032164476,0.00824936814017843,0.00168920578575476
411,0.000322651899490249,0.00850137377429534,0.00170812493031175
412,0.000278795766816023,0.00875337940841225,0.00172704407486875
413,0.000250676624403404,0.00898943858834082,0.00174731162881804
414,0.000222557481990785,0.00922549776826938,0.00176757918276733
415,0.000194438339578166,0.00946155694819795,0.00178784673671662
416,0.000166319197165547,0.00969761612812652,0.00180811429066591
417,0.000148856599339529,0.00990304156199144,0.00182984952363433
418,0.000131394001513510,0.0101084669958564,0.00185158475660275
419,0.000113931403687492,0.0103138924297213,0.00187331998957117
420,9.64688058614736E-05,0.0105193178635862,0.00189505522253959
421,8.59545321113006E-05,0.0106801384264222,0.00191837574763139
422,7.54402583611276E-05,0.0108409589892582,0.00194169627272318
423,6.49259846109547E-05,0.0110017795520941,0.00196501679781497
424,5.44117108607817E-05,0.0111626001149301,0.00198833732290677
425,4.8275707367119E-05,0.0112670460144869,0.00201336406627137
426,4.21397038734562E-05,0.0113714919140438,0.00203839080963597
427,3.60037003797935E-05,0.0114759378136006,0.00206341755300057
428,2.98676968861308E-05,0.0115803837131575,0.00208844429636517
429,2.63889454663879E-05,0.0116202043544189,0.00211529155806162
430,2.29101940466449E-05,0.0116600249956803,0.00214213881975808
431,1.9431442626902E-05,0.0116998456369417,0.00216898608145453
432,1.5952691207159E-05,0.0117396662782031,0.00219583334315099
433,1.40389189881183E-05,0.0117389765272857,0.00222461542323836
434,1.21251467690777E-05,0.0117382867763683,0.00225339750332572
435,1.0211374550037E-05,0.0117375970254509,0.00228217958341309
436,8.2976023309964E-06,0.0117369072745335,0.00231096166350045
437,7.27417018508257E-06,0.0117319087817150,0.00234178292290221
438,6.25073803916874E-06,0.0117269102888966,0.00237260418230396
439,5.22730589325492E-06,0.0117219117960781,0.00240342544170572
440,4.20387374734109E-06,0.0117169133032596,0.00243424670110748
441,3.6715054561931E-06,0.0117076148738709,0.00246719990508894
442,3.1391371650451E-06,0.0116983164444823,0.00250015310907041
443,2.6067688738971E-06,0.0116890180150936,0.00253310631305187
444,2.0744005827491E-06,0.0116797195857049,0.00256605951703334
445,1.80454493171891E-06,0.0116661505708489,0.00260123080476945
446,1.53468928068871E-06,0.0116525815559929,0.00263640209250556
447,1.26483362965852E-06,0.0116390125411369,0.00267157338024167
448,9.94977978628329E-07,0.0116254435262809,0.00270674466797778
449,8.62803782205377E-07,0.0115297207744965,0.00274419864384974
450,7.30629585782426E-07,0.0114339980227121,0.00278165261972171
451,5.98455389359475E-07,0.0113382752709277,0.00281910659559367
452,4.66281192936523E-07,0.0112425525191434,0.00285656057146563
453,4.0386560018124E-07,0.0110857178360769,0.00289635024419648
454,3.39614254697861E-07,0.0109288831530104,0.00293613991692733
455,2.77198661942579E-07,0.0107720484699440,0.00297592958965818
456,2.129473164592E-07,0.0106152137868775,0.00301571926238903
457,1.83391697536845E-07,0.0104074608105551,0.00305786451024990
458,1.53836078614491E-07,0.0101997078342328,0.00310000975811078
459,1.24280459692136E-07,0.00999195485791037,0.00314215500597166
460,9.47248407697819E-08,0.00978420188158799,0.00318430025383254
461,8.13238458546771E-08,0.00953870338697698,0.00322879610725566
462,6.79228509395723E-08,0.00929320489236597,0.00327329196067878
463,5.45218560244675E-08,0.00904770639775496,0.00331778781410190
464,4.11208611093627E-08,0.00880220790314395,0.00336228366752502
465,3.52464523794537E-08,0.00853369227366362,0.00340908871344551
466,2.93720436495448E-08,0.00826517664418329,0.00345589375936600
467,2.33140596468262E-08,0.00799666101470296,0.00350269880528649
468,1.74396509169172E-08,0.00772814538522263,0.00354950385120697
469,1.4887954624863E-08,0.00745138503094660,0.00359852532435952
470,1.23362583328088E-08,0.00717462467667056,0.00364754679751206
471,9.76620451347363E-09,0.00689786432239453,0.00369656827066460
472,7.21450822141943E-09,0.00662110396811850,0.00374558974381714
473,6.14977163912344E-09,0.00634957985059417,0.00379668352673597
474,5.06667752954647E-09,0.00607805573306984,0.00384777730965480
475,4.00194094725047E-09,0.00580653161554551,0.00389887109257363
476,2.91884683767351E-09,0.00553500749802118,0.00394996487549246
477,2.47826618293034E-09,0.00527986716611793,0.00400292224633062
478,2.03768552818717E-09,0.00502472683421468,0.00405587961716878
479,1.5934333679878E-09,0.00476958650231144,0.00410883698800693
480,1.15101696051654E-09,0.00451444617040819,0.00416179435884509
481,9.74784698619267E-10,0.00428387858182628,0.00421633536528403
482,7.98552436721998E-10,0.00405331099324437,0.00427087637172296
483,6.20484422096633E-10,0.00382274340466247,0.00432541737816190
484,4.44252160199365E-10,0.00359217581608056,0.00437995838460083
485,3.74493556531696E-10,0.00339122936051334,0.00443571859166965
486,3.06570705592123E-10,0.00319028290494611,0.00449147879873848
487,2.36812101924455E-10,0.00298933644937889,0.00454723900580730
488,1.67420648802405E-10,0.00278838999381167,0.00460299921287612
489,1.40985809517815E-10,0.00261913685912163,0.00465951976381603
490,1.14550970233225E-10,0.00244988372443160,0.00471604031475594
491,8.81161309486343E-11,0.00228063058974156,0.00477256086569585
492,6.1681291664044E-11,0.00211137745505153,0.00482908141663575
493,5.17682269323226E-11,0.00197339792046766,0.00488581400246782
494,4.20387374734109E-11,0.00183541838588380,0.00494254658829988
495,3.21256727416896E-11,0.00169743885129993,0.00499927917413194
496,2.22126080099682E-11,0.00155945931671607,0.00505601175996400
497,1.85411025537751E-11,0.00145046106110436,0.00511230205426321
498,1.50348148431107E-11,0.00134146280549265,0.00516859234856242
499,1.14367394960415E-11,0.00123246454988094,0.00522488264286163
500,7.83866414897226E-12,0.00112346629426924,0.00528117293716084
501,6.55363723930468E-12,0.00103995653638836,0.00533626059605611
502,5.26861032963709E-12,0.000956446778507477,0.00539134825495138
503,3.98358341996951E-12,0.000872937020626598,0.00544643591384665
504,2.69855651030193E-12,0.000789427262745719,0.00550152357274192
505,2.25797585555875E-12,0.000727326199296976,0.00555455548709685
506,1.806380684447E-12,0.000665225135848233,0.00560758740145178
507,1.35845701879145E-12,0.000603124072399490,0.00566061931580671
508,9.12369105863984E-13,0.000541023008950747,0.00571365123016164
509,7.60001629431971E-13,0.000496171588657702,0.00576367655600673
510,6.07634152999957E-13,0.000451320168364658,0.00581370188185181
511,4.53430923839847E-13,0.000406468748071613,0.00586372720769690
512,3.01063447407834E-13,0.000361617327778568,0.00591375253354198
513,2.4966237102113E-13,0.000330147075283180,0.00595974753991353
514,2.00097047362524E-13,0.000298676822787792,0.00600574254628509
515,1.48328820430201E-13,0.000267206570292403,0.00605173755265665
516,9.74784698619267E-14,0.000235736317797015,0.00609773255902820
517,8.07731200362481E-14,0.000214268921159143,0.00613860891058134
518,6.42513454833792E-14,0.000192801524521270,0.00617948526213448
519,4.75459956577006E-14,0.000171334127883398,0.00622036161368763
520,3.0840645832022E-14,0.000149866731245525,0.00626123796524077
521,2.5516962920542E-14,0.000135631446354401,0.00629588247879168
522,2.0193280009062E-14,0.000121396161463277,0.00633052699234260
523,1.4906312152144E-14,0.000107160876572153,0.00636517150589351
524,9.60098676794494E-15,9.29255916810287E-05,0.00639981601944443
525,7.93045178537709E-15,8.37416315935385E-05,0.00642711219876412
526,6.25991680280923E-15,7.45576715060483E-05,0.00645440837808381
527,4.58938182024137E-15,6.53737114185582E-05,0.00648170455740350
528,2.91884683767351E-15,5.6189751331068E-05,0.00650900073672319
529,2.40483607380648E-15,5.04281298380213E-05,0.00652787184212493
530,1.89082530993944E-15,4.46665083449746E-05,0.00654674294752667
531,1.3841575569848E-15,3.89048868519278E-05,0.00656561405292841
532,8.7198254584586E-16,3.31432653588811E-05,0.00658448515833015
533,7.1777931668575E-16,2.96211330146855E-05,0.00659393727625697
534,5.6357608752564E-16,2.60990006704898E-05,0.00660338939418379
535,4.0937285836553E-16,2.25768683262941E-05,0.00661284151211061
536,2.5516962920542E-16,1.90547359820985E-05,0.00662229363003743
537,2.09275811003006E-16,1.69649374578757E-05,0.00662146536873996
538,1.64116293891831E-16,1.4875138933653E-05,0.00662063710744248
539,1.18589626235037E-16,1.27853404094302E-05,0.00661980884614500
540,7.30629585782426E-17,1.06955418852075E-05,0.00661898058484752
541,6.00291142087571E-17,9.4833413367468E-06,0.00660718614397143
542,4.6811694566462E-17,8.27114078828613E-06,0.00659539170309534
543,3.37778501969765E-17,7.05894023982546E-06,0.00658359726221926
544,2.05604305546813E-17,5.84673969136479E-06,0.00657180282134317
545,1.68338525166453E-17,5.16579410482029E-06,0.00654857837456188
546,1.31256320058903E-17,4.4848485182758E-06,0.00652535392778059
547,9.39905396785432E-18,3.80390293173131E-06,0.00650212948099931
548,5.67247592981833E-18,3.12295734518681E-06,0.00647890503421802
549,4.64445440208427E-18,2.74726322847261E-06,0.00644405511186533
550,3.59807534706923E-18,2.37156911175841E-06,0.00640920518951264
551,2.57005381933517E-18,1.9958749950442E-06,0.00637435526715995
552,1.53836078614491E-18,1.62018087833E-06,0.00633950534480726
553,1.25565486601804E-18,1.42118040088295E-06,0.00629312602519367
554,9.74784698619267E-19,1.22217992343589E-06,0.00624674670558009
555,6.92078778492399E-19,1.0237664680462E-06,0.00620036738596650
556,4.0937285836553E-19,8.24178968541783E-07,0.00615398806635292
557,3.34106996513572E-19,7.19689042330645E-07,0.00609649679317237
558,2.58841134661613E-19,6.1637316023424E-07,0.00603900551999181
559,1.82657396445606E-19,5.11883234023102E-07,0.00598151424681126
560,1.07024384048029E-19,4.07393307811964E-07,0.00592402297363071
561,8.7198254584586E-20,3.54561322649029E-07,0.00585616352552832
562,6.71885498483336E-20,3.02903381600826E-07,0.00578830407742594
563,4.73624203848909E-20,2.50071396437891E-07,0.00572044462932356
564,2.73527156486386E-20,1.97239411274957E-07,0.00565258518122117
565,2.22126080099682E-20,1.71410440750855E-07,0.00557541441961254
566,1.71459304804218E-20,1.45581470226754E-07,0.00549824365800391
567,1.20241803690324E-20,1.1857845558792E-07,0.00542107289639528
568,6.92078778492398E-21,9.27494850638189E-08,0.00534390213478664
569,5.61740334797544E-21,8.01872130361877E-08,0.00525877012558665
570,4.31401891102689E-21,6.77423454200298E-08,0.00517363811638666
571,3.01063447407834E-21,5.51800733923986E-08,0.00508850610718667
572,1.71275729531408E-21,4.26178013647674E-08,0.00500337409798667
573,1.38966481516909E-21,3.6747580791108E-08,0.00491187607245426
574,1.064736582296E-21,3.08773602174486E-08,0.00482037804692185
575,7.41644102151005E-22,2.50071396437891E-08,0.00472888002138944
576,4.16715869277916E-22,1.91369190701297E-08,0.00463738199585704
577,3.37778501969765E-22,1.64366176062464E-08,0.00454129871578179
578,2.58841134661613E-22,1.37363161423631E-08,0.00444521543570654
579,1.79169466262223E-22,1.1047755119627E-08,0.00434913215563129
580,9.98649484084522E-23,8.3474536557437E-09,0.00425304887555604
581,8.07731200362481E-23,7.14992865871718E-09,0.00415428037235437
582,6.1681291664044E-23,5.95240366169066E-09,0.00405551186915270
583,4.25894632918399E-23,4.75487866466413E-09,0.00395674336595102
584,2.34976349196358E-23,3.55735366763761E-09,0.00385797486274935
585,1.89082530993944E-23,3.04077425715558E-09,0.00375846092437995
586,1.44657314974008E-23,2.52419484667355E-09,0.00365894698601055
587,9.94977978628329E-24,1.9958749950442E-09,0.00355943304764114
588,5.43382807516578E-24,1.47929558456217E-09,0.00345991910927174
589,4.38744902015075E-24,1.25622720276312E-09,0.00336155148453805
590,3.34106996513572E-24,1.04020308565245E-09,0.00326318385980435
591,2.29469091012068E-24,8.20656836197587E-10,0.00316481623507066
592,1.23729733873707E-24,6.01110586742725E-10,0.00306644861033697
593,9.96813731356425E-25,5.1070918990837E-10,0.00297099812189299
594,7.58165876703874E-25,4.20307793074015E-10,0.00287554763344902
595,5.17682269323226E-25,3.28732352124928E-10,0.00278009714500504
596,2.77198661942579E-25,2.38330955290573E-10,0.00268464665656107
597,2.23961832827779E-25,2.01935587733884E-10,0.00259368865739461
598,1.69256401530502E-25,1.65540220177196E-10,0.00250273065822816
599,1.15101696051654E-25,1.29144852620507E-10,0.00241177265906171
600,6.1130565845615E-26,9.2162463006453E-11,0.00232081465989525
601,4.91981731129875E-26,7.7839124806724E-11,0.00223566774199190
602,3.72657803803599E-26,6.3515786606995E-11,0.00215052082408856
603,2.51498123749227E-26,4.90750439957928E-11,0.00206537390618521
